Time [s],Monitor Point: CenterVel (Velocity) [m s^-1],Monitor Point: Inlet (Velocity) [m s^-1],Monitor Point: r0Vel (Velocity) [m s^-1],Monitor Point: r1Vel (Velocity) [m s^-1],Monitor Point: r2Vel (Velocity) [m s^-1],Monitor Point: r3Vel (Velocity) [m s^-1],Monitor Point: r4Vel (Velocity) [m s^-1]
0.0035000001,0.0997543335,0.5091734530,0.0997543335,0.1007305090,0.1023193600,0.1039198410,0.1022504200
0.0060000001,0.1137197610,0.5084175470,0.1137197610,0.1151615600,0.1198262720,0.1231086630,0.1194578110
0.0085000005,0.1209270130,0.5085513590,0.1209270130,0.1225853260,0.1290705500,0.1317068640,0.1225637570
0.0109999999,0.1286279560,0.5086309910,0.1286279560,0.1303358530,0.1375797240,0.1383170340,0.1228163690
0.0135000004,0.1359626350,0.5086418390,0.1359626350,0.1375718860,0.1446304770,0.1427269130,0.1210825220
0.0160000008,0.1430555430,0.5086401700,0.1430555430,0.1444659980,0.1506576990,0.1457565280,0.1184299510
0.0185000002,0.1499228330,0.5086388590,0.1499228330,0.1510636360,0.1558653710,0.1478856500,0.1155375470
0.0209999997,0.1565441790,0.5086384420,0.1565441790,0.1573735030,0.1605458560,0.1495220210,0.1126831700
0.0234999992,0.1629064830,0.5086382630,0.1629064830,0.1634079370,0.1649190630,0.1509083360,0.1099114790
0.0260000005,0.1690226940,0.5086380240,0.1690226940,0.1692135780,0.1690090000,0.1520545040,0.1072143390
0.0285000000,0.1749492140,0.5086377860,0.1749492140,0.1748584810,0.1728601160,0.1529949750,0.1045949240
0.0309999995,0.1807738240,0.5086375470,0.1807738240,0.1804196690,0.1765157430,0.1537432670,0.1020299420
0.0335000008,0.1867006720,0.5086373090,0.1867006720,0.1860255750,0.1800513860,0.1543289720,0.0994855538
0.0359999985,0.1931094530,0.5086370710,0.1931094530,0.1919870230,0.1836026310,0.1547319440,0.0968864784
0.0384999998,0.2007028910,0.5086368320,0.2007028910,0.1988616730,0.1873366530,0.1548874230,0.0941357315
0.0410000011,0.2107671800,0.5086365940,0.2107671800,0.2076727450,0.1915282460,0.1546209450,0.0910902843
0.0434999987,0.2254126070,0.5086363550,0.2254126070,0.2201908380,0.1967563330,0.1537003820,0.0874314904
0.0460000001,0.2473969310,0.5086360570,0.2473969310,0.2388211940,0.2039366660,0.1519199910,0.0825409740
0.0485000014,0.2789303360,0.5086357590,0.2789303360,0.2655822340,0.2140611560,0.1494446400,0.0759836659
0.0509999990,0.3197167520,0.5086355210,0.3197167520,0.3003450040,0.2274412070,0.1466812340,0.0674256459
0.0535000004,0.3659062680,0.5086352230,0.3659062680,0.3401063980,0.2432880100,0.1440525500,0.0576136559
0.0560000017,0.4110930860,0.5086349250,0.4110930860,0.3797335030,0.2598632280,0.1418220250,0.0483004898
0.0584999993,0.4493272010,0.5086346270,0.4493272010,0.4139791730,0.2747785450,0.1399717330,0.0417608246
0.0610000007,0.4763932530,0.5086343290,0.4763932530,0.4396402840,0.2863546010,0.1384846420,0.0396628045
0.0635000020,0.4930532570,0.5086339710,0.4930532570,0.4558700620,0.2940094170,0.1375071560,0.0416176952
0.0659999996,0.5023236270,0.5086336730,0.5023236270,0.4647490680,0.2981094420,0.1370242830,0.0455935933
0.0684999973,0.5069017410,0.5086333750,0.5069017410,0.4687826340,0.2995368840,0.1367640200,0.0496828072
0.0710000023,0.5086768270,0.5086330770,0.5086768270,0.4699566660,0.2992812400,0.1364799590,0.0529101379
0.0734999999,0.5088707800,0.5086328390,0.5088707800,0.4696197510,0.2982142870,0.1360840050,0.0549570844
0.0759999976,0.5082405810,0.5086325410,0.5082405810,0.4686008990,0.2969253360,0.1355796160,0.0558358468
0.0785000026,0.5072355270,0.5086322430,0.5072355270,0.4673721190,0.2957490980,0.1350241450,0.0557146817
0.0810000002,0.5061012510,0.5086320040,0.5061012510,0.4661681060,0.2948211430,0.1344814900,0.0548188202
0.0834999979,0.5049618480,0.5086318250,0.5049618480,0.4650827350,0.2941496070,0.1339937450,0.0534024239
0.0860000029,0.5038699510,0.5086316470,0.5038699510,0.4641298950,0.2936791180,0.1335642640,0.0516731888
0.0885000005,0.5028465390,0.5086314680,0.5028465390,0.4632939400,0.2933409510,0.1331751640,0.0497808680
0.0909999982,0.5019071700,0.5086313490,0.5019071700,0.4625619050,0.2930816710,0.1328042890,0.0478274226
0.0935000032,0.5010701420,0.5086312290,0.5010701420,0.4619322120,0.2928707600,0.1324353070,0.0458662920
0.0960000008,0.5003539320,0.5086311700,0.5003539320,0.4614112970,0.2926989200,0.1320606020,0.0439283885
0.0984999985,0.4997726980,0.5086311100,0.4997726980,0.4610070590,0.2925685640,0.1316803540,0.0420380495
0.1010000040,0.4993342460,0.5086311100,0.4993342460,0.4607259040,0.2924886050,0.1313034740,0.0402115025
0.1035000010,0.4990362820,0.5086311100,0.4990362820,0.4605659840,0.2924663720,0.1309420320,0.0384682640
0.1059999990,0.4988661710,0.5086311100,0.4988661710,0.4605158870,0.2925036250,0.1306098250,0.0368390977
0.1084999960,0.4988048370,0.5086311700,0.4988048370,0.4605570140,0.2925947010,0.1303142610,0.0353475548
0.1110000010,0.4988285900,0.5086312290,0.4988285900,0.4606651960,0.2927268740,0.1300576480,0.0340111963
0.1134999990,0.4989137350,0.5086312890,0.4989137350,0.4608160260,0.2928842310,0.1298380490,0.0328380652
0.1159999970,0.4990388450,0.5086313490,0.4990388450,0.4609878060,0.2930511240,0.1296511140,0.0318288468
0.1185000020,0.4991866050,0.5086314080,0.4991866050,0.4611637590,0.2932145000,0.1294913890,0.0309765395
0.1209999990,0.4993443190,0.5086314680,0.4993443190,0.4613329770,0.2933656280,0.1293532700,0.0302674156
0.1234999970,0.4995030760,0.5086315270,0.4995030760,0.4614893200,0.2934998570,0.1292326900,0.0296849143
0.1260000020,0.4996569450,0.5086315870,0.4996569450,0.4616304040,0.2936159670,0.1291265190,0.0292101596
0.1285000000,0.4998022320,0.5086316470,0.4998022320,0.4617560510,0.2937149410,0.1290328950,0.0288248602
0.1309999970,0.4999366400,0.5086317060,0.4999366400,0.4618672730,0.2937991320,0.1289504920,0.0285111740
0.1334999950,0.5000590090,0.5086317660,0.5000590090,0.4619653820,0.2938712240,0.1288778040,0.0282530393
0.1360000070,0.5001688000,0.5086317660,0.5001688000,0.4620518980,0.2939336900,0.1288138330,0.0280371793
0.1385000050,0.5002661350,0.5086318250,0.5002661350,0.4621281030,0.2939885560,0.1287577750,0.0278531127
0.1410000030,0.5003514290,0.5086318850,0.5003514290,0.4621950690,0.2940373720,0.1287088100,0.0276928321
0.1435000000,0.5004254580,0.5086318850,0.5004254580,0.4622538980,0.2940812410,0.1286659840,0.0275503155
0.1459999980,0.5004894140,0.5086318850,0.5004894140,0.4623055460,0.2941211160,0.1286283430,0.0274210125
0.1484999950,0.5005446080,0.5086319450,0.5005446080,0.4623511140,0.2941576840,0.1285948900,0.0273016356
0.1509999930,0.5005924110,0.5086319450,0.5005924110,0.4623916450,0.2941914800,0.1285648050,0.0271900613
0.1535000060,0.5006342530,0.5086319450,0.5006342530,0.4624281230,0.2942229210,0.1285374760,0.0270849187
0.1560000030,0.5006712680,0.5086320040,0.5006712680,0.4624613820,0.2942524850,0.1285124870,0.0269854050
0.1585000010,0.5007044670,0.5086320040,0.5007044670,0.4624921380,0.2942804400,0.1284892710,0.0268908981
0.1609999980,0.5007346870,0.5086320040,0.5007346870,0.4625208970,0.2943070530,0.1284675750,0.0268011335
0.1634999960,0.5007625220,0.5086320040,0.5007625220,0.4625480770,0.2943325040,0.1284472940,0.0267159957
0.1659999940,0.5007884500,0.5086320640,0.5007884500,0.4625739460,0.2943568830,0.1284282950,0.0266354121
0.1685000060,0.5008127690,0.5086320640,0.5008127690,0.4625987110,0.2943803070,0.1284104880,0.0265592597
0.1710000040,0.5008358360,0.5086320640,0.5008358360,0.4626224640,0.2944028680,0.1283937990,0.0264874306
0.1735000010,0.5008577110,0.5086320640,0.5008577110,0.4626453220,0.2944245640,0.1283781530,0.0264198277
0.1759999990,0.5008786320,0.5086320640,0.5008786320,0.4626673160,0.2944454250,0.1283635350,0.0263563301
0.1784999970,0.5008986000,0.5086321230,0.5008986000,0.4626884460,0.2944654820,0.1283498850,0.0262967888
0.1809999940,0.5009176730,0.5086321230,0.5009176730,0.4627087710,0.2944847350,0.1283371750,0.0262410212
0.1835000070,0.5009359720,0.5086321230,0.5009359720,0.4627282920,0.2945032120,0.1283253430,0.0261888243
0.1860000040,0.5009533760,0.5086321230,0.5009533760,0.4627469480,0.2945208850,0.1283142720,0.0261399187
0.1885000020,0.5009700060,0.5086321230,0.5009700060,0.4627648000,0.2945377830,0.1283039150,0.0260940585
0.1910000000,0.5009858610,0.5086321230,0.5009858610,0.4627818170,0.2945539360,0.1282942300,0.0260510258
0.1934999970,0.5010009410,0.5086321230,0.5010009410,0.4627980590,0.2945693730,0.1282852140,0.0260106158
0.1959999950,0.5010153060,0.5086321830,0.5010153060,0.4628134970,0.2945840950,0.1282768550,0.0259726364
0.1985000070,0.5010290150,0.5086321830,0.5010290150,0.4628282490,0.2945982220,0.1282691060,0.0259368941
0.2010000050,0.5010420080,0.5086321830,0.5010420080,0.4628422860,0.2946116920,0.1282619090,0.0259032045
0.2035000030,0.5010544060,0.5086321830,0.5010544060,0.4628556370,0.2946245970,0.1282552330,0.0258713905
0.2060000000,0.5010661480,0.5086321830,0.5010661480,0.4628683630,0.2946369350,0.1282490190,0.0258412939
0.2084999980,0.5010772940,0.5086321830,0.5010772940,0.4628804620,0.2946487070,0.1282432230,0.0258127749
0.2109999950,0.5010879040,0.5086321830,0.5010879040,0.4628919660,0.2946600020,0.1282378140,0.0257857107
0.2134999930,0.5010979770,0.5086321830,0.5010979770,0.4629029040,0.2946707610,0.1282327470,0.0257599875
0.2160000060,0.5011075740,0.5086321830,0.5011075740,0.4629133640,0.2946810720,0.1282279640,0.0257355049
0.2185000030,0.5011166930,0.5086322430,0.5011166930,0.4629232880,0.2946909370,0.1282234790,0.0257121697
0.2210000010,0.5011254550,0.5086322430,0.5011254550,0.4629327650,0.2947004140,0.1282192320,0.0256899036
0.2234999980,0.5011337400,0.5086322430,0.5011337400,0.4629417960,0.2947094440,0.1282152090,0.0256686304
0.2259999960,0.5011416670,0.5086322430,0.5011416670,0.4629504380,0.2947181170,0.1282113940,0.0256482884
0.2284999940,0.5011492370,0.5086322430,0.5011492370,0.4629587230,0.2947264310,0.1282077730,0.0256288238
0.2310000060,0.5011565090,0.5086322430,0.5011565090,0.4629666210,0.2947344180,0.1282043310,0.0256101824
0.2335000040,0.5011634230,0.5086322430,0.5011634230,0.4629742210,0.2947420480,0.1282010530,0.0255923197
0.2360000010,0.5011700990,0.5086322430,0.5011700990,0.4629814920,0.2947494090,0.1281979230,0.0255751908
0.2384999990,0.5011764760,0.5086322430,0.5011764760,0.4629884360,0.2947564720,0.1281949130,0.0255587567
0.2409999970,0.5011826160,0.5086322430,0.5011826160,0.4629951420,0.2947632370,0.1281920670,0.0255429875
0.2434999940,0.5011885170,0.5086322430,0.5011885170,0.4630015790,0.2947697640,0.1281893250,0.0255278535
0.2460000070,0.5011941790,0.5086322430,0.5011941790,0.4630077480,0.2947760520,0.1281867180,0.0255133174
0.2485000040,0.5011996630,0.5086322430,0.5011996630,0.4630136790,0.2947820720,0.1281842140,0.0254993476
0.2509999870,0.5012048480,0.5086322430,0.5012048480,0.4630194010,0.2947878840,0.1281818150,0.0254859142
0.2535000150,0.5012099150,0.5086322430,0.5012099150,0.4630249140,0.2947934870,0.1281795350,0.0254729912
0.2560000120,0.5012147430,0.5086323020,0.5012147430,0.4630301890,0.2947988810,0.1281773150,0.0254605487
0.2585000100,0.5012194510,0.5086323020,0.5012194510,0.4630352850,0.2948040660,0.1281751990,0.0254485663
0.2610000070,0.5012239220,0.5086323020,0.5012239220,0.4630402030,0.2948091030,0.1281731580,0.0254370198
0.2635000050,0.5012282730,0.5086323020,0.5012282730,0.4630449410,0.2948139310,0.1281711910,0.0254258905
0.2660000030,0.5012324450,0.5086323020,0.5012324450,0.4630495010,0.2948185800,0.1281692980,0.0254151598
0.2685000000,0.5012364980,0.5086323020,0.5012364980,0.4630539120,0.2948230800,0.1281674650,0.0254048053
0.2709999980,0.5012403730,0.5086323020,0.5012403730,0.4630581440,0.2948274310,0.1281657220,0.0253948141
0.2734999950,0.5012441280,0.5086323020,0.5012441280,0.4630622570,0.2948316340,0.1281640230,0.0253851693
0.2759999930,0.5012477640,0.5086323020,0.5012477640,0.4630662200,0.2948356870,0.1281623840,0.0253758524
0.2784999910,0.5012512800,0.5086323020,0.5012512800,0.4630700350,0.2948396210,0.1281608050,0.0253668502
0.2809999880,0.5012546780,0.5086323020,0.5012546780,0.4630737300,0.2948434050,0.1281592850,0.0253581516
0.2834999860,0.5012579560,0.5086323020,0.5012579560,0.4630773070,0.2948470710,0.1281578240,0.0253497418
0.2860000130,0.5012611150,0.5086323020,0.5012611150,0.4630807640,0.2948506180,0.1281564090,0.0253416076
0.2885000110,0.5012641550,0.5086323020,0.5012641550,0.4630841020,0.2948540450,0.1281550380,0.0253337398
0.2910000090,0.5012671350,0.5086323020,0.5012671350,0.4630873200,0.2948573830,0.1281537120,0.0253261272
0.2935000060,0.5012699370,0.5086323020,0.5012699370,0.4630904500,0.2948606010,0.1281524300,0.0253187604
0.2960000040,0.5012727380,0.5086323020,0.5012727380,0.4630934600,0.2948637010,0.1281511930,0.0253116284
0.2985000010,0.5012753610,0.5086323020,0.5012753610,0.4630963800,0.2948667110,0.1281499860,0.0253047235
0.3009999990,0.5012779830,0.5086323020,0.5012779830,0.4630992110,0.2948696320,0.1281488240,0.0252980385
0.3034999970,0.5012804870,0.5086323020,0.5012804870,0.4631019530,0.2948724630,0.1281477060,0.0252915602
0.3059999940,0.5012828710,0.5086323020,0.5012828710,0.4631046060,0.2948752050,0.1281466040,0.0252852850
0.3084999920,0.5012852550,0.5086323020,0.5012852550,0.4631071980,0.2948778570,0.1281455310,0.0252792016
0.3109999900,0.5012875200,0.5086323020,0.5012875200,0.4631096720,0.2948804500,0.1281444880,0.0252733026
0.3134999870,0.5012897250,0.5086323020,0.5012897250,0.4631120860,0.2948829230,0.1281434740,0.0252675824
0.3160000150,0.5012918710,0.5086323020,0.5012918710,0.4631144400,0.2948853370,0.1281425060,0.0252620317
0.3185000120,0.5012939570,0.5086323020,0.5012939570,0.4631167050,0.2948876920,0.1281415370,0.0252566487
0.3210000100,0.5012959840,0.5086323020,0.5012959840,0.4631189110,0.2948899570,0.1281406130,0.0252514221
0.3235000070,0.5012979510,0.5086323020,0.5012979510,0.4631210270,0.2948921620,0.1281397040,0.0252463482
0.3260000050,0.5012998580,0.5086323020,0.5012998580,0.4631231130,0.2948942780,0.1281388250,0.0252414234
0.3285000030,0.5013017060,0.5086323620,0.5013017060,0.4631251100,0.2948963640,0.1281379610,0.0252366383
0.3310000000,0.5013034940,0.5086323620,0.5013034940,0.4631270770,0.2948983610,0.1281371270,0.0252319891
0.3334999980,0.5013052230,0.5086323620,0.5013052230,0.4631289540,0.2949002980,0.1281363070,0.0252274722
0.3359999950,0.5013068910,0.5086323620,0.5013068910,0.4631308020,0.2949022050,0.1281355020,0.0252230838
0.3384999930,0.5013085600,0.5086323620,0.5013085600,0.4631325900,0.2949040530,0.1281347270,0.0252188127
0.3409999910,0.5013101700,0.5086323620,0.5013101700,0.4631343190,0.2949058120,0.1281339680,0.0252146609
0.3434999880,0.5013117190,0.5086323620,0.5013117190,0.4631359880,0.2949075700,0.1281332370,0.0252106227
0.3459999860,0.5013132690,0.5086323620,0.5013132690,0.4631376270,0.2949092390,0.1281325220,0.0252066944
0.3485000130,0.5013147000,0.5086323620,0.5013147000,0.4631392360,0.2949108780,0.1281318220,0.0252028704
0.3510000110,0.5013161300,0.5086323620,0.5013161300,0.4631407860,0.2949124870,0.1281311360,0.0251991525
0.3535000090,0.5013175610,0.5086323620,0.5013175610,0.4631422760,0.2949140370,0.1281304810,0.0251955315
0.3560000060,0.5013188720,0.5086323620,0.5013188720,0.4631437660,0.2949155570,0.1281298400,0.0251920093
0.3585000040,0.5013201830,0.5086323620,0.5013201830,0.4631451670,0.2949170170,0.1281292140,0.0251885764
0.3610000010,0.5013214950,0.5086323620,0.5013214950,0.4631465670,0.2949184480,0.1281286030,0.0251852367
0.3634999990,0.5013227460,0.5086323620,0.5013227460,0.4631479380,0.2949198480,0.1281280070,0.0251819827
0.3659999970,0.5013239980,0.5086323620,0.5013239980,0.4631492500,0.2949212190,0.1281274260,0.0251788124
0.3684999940,0.5013251300,0.5086323620,0.5013251300,0.4631505310,0.2949225310,0.1281268450,0.0251757242
0.3709999920,0.5013263230,0.5086323620,0.5013263230,0.4631517830,0.2949238120,0.1281262930,0.0251727160
0.3734999900,0.5013274550,0.5086323620,0.5013274550,0.4631530050,0.2949250640,0.1281257570,0.0251697823
0.3759999870,0.5013285280,0.5086323620,0.5013285280,0.4631541670,0.2949262860,0.1281252210,0.0251669250
0.3785000150,0.5013296010,0.5086323620,0.5013296010,0.4631553290,0.2949274780,0.1281247140,0.0251641385
0.3810000120,0.5013306740,0.5086323620,0.5013306740,0.4631564620,0.2949286400,0.1281242070,0.0251614228
0.3835000100,0.5013316870,0.5086323620,0.5013316870,0.4631575640,0.2949297730,0.1281237160,0.0251587722
0.3860000070,0.5013326410,0.5086323620,0.5013326410,0.4631586070,0.2949308750,0.1281232390,0.0251561888
0.3885000050,0.5013335940,0.5086323620,0.5013335940,0.4631596510,0.2949319480,0.1281227770,0.0251536686
0.3910000030,0.5013345480,0.5086323620,0.5013345480,0.4631606940,0.2949329910,0.1281223150,0.0251512080
0.3935000000,0.5013354420,0.5086323620,0.5013354420,0.4631616770,0.2949340340,0.1281218830,0.0251488071
0.3959999980,0.5013363960,0.5086323620,0.5013363960,0.4631626310,0.2949350180,0.1281214360,0.0251464657
0.3984999950,0.5013372300,0.5086323620,0.5013372300,0.4631635840,0.2949360010,0.1281210180,0.0251441784
0.4009999930,0.5013380650,0.5086323620,0.5013380650,0.4631644790,0.2949369250,0.1281206160,0.0251419470
0.4034999910,0.5013388990,0.5086323620,0.5013388990,0.4631654020,0.2949378790,0.1281202140,0.0251397677
0.4059999880,0.5013397340,0.5086323620,0.5013397340,0.4631662670,0.2949387730,0.1281198260,0.0251376405
0.4084999860,0.5013405080,0.5086323620,0.5013405080,0.4631671310,0.2949396670,0.1281194240,0.0251355618
0.4110000130,0.5013412830,0.5086323620,0.5013412830,0.4631679360,0.2949405310,0.1281190660,0.0251335315
0.4135000110,0.5013420580,0.5086323620,0.5013420580,0.4631687700,0.2949413660,0.1281186940,0.0251315497
0.4160000090,0.5013427730,0.5086323620,0.5013427730,0.4631695750,0.2949422000,0.1281183360,0.0251296125
0.4185000060,0.5013434890,0.5086323620,0.5013434890,0.4631703500,0.2949430050,0.1281179930,0.0251277201
0.4210000040,0.5013442040,0.5086323620,0.5013442040,0.4631710950,0.2949437800,0.1281176510,0.0251258705
0.4235000010,0.5013448600,0.5086323620,0.5013448600,0.4631718400,0.2949445550,0.1281173230,0.0251240637
0.4259999990,0.5013455750,0.5086323620,0.5013455750,0.4631725550,0.2949453000,0.1281169950,0.0251222979
0.4284999970,0.5013461710,0.5086323620,0.5013461710,0.4631732700,0.2949460450,0.1281166670,0.0251205694
0.4309999940,0.5013468270,0.5086323620,0.5013468270,0.4631739560,0.2949467600,0.1281163540,0.0251188818
0.4334999920,0.5013474820,0.5086323620,0.5013474820,0.4631746110,0.2949474450,0.1281160560,0.0251172315
0.4359999900,0.5013480780,0.5086323620,0.5013480780,0.4631752670,0.2949481310,0.1281157580,0.0251156166
0.4384999870,0.5013486740,0.5086323620,0.5013486740,0.4631759230,0.2949487860,0.1281154750,0.0251140390
0.4410000150,0.5013492110,0.5086323620,0.5013492110,0.4631765480,0.2949494720,0.1281151920,0.0251124967
0.4435000120,0.5013498070,0.5086323620,0.5013498070,0.4631771740,0.2949500980,0.1281149090,0.0251109861
0.4460000100,0.5013503430,0.5086323620,0.5013503430,0.4631777700,0.2949507240,0.1281146410,0.0251095109
0.4485000070,0.5013509390,0.5086323620,0.5013509390,0.4631783370,0.2949513200,0.1281143720,0.0251080655
0.4510000050,0.5013514160,0.5086323620,0.5013514160,0.4631789330,0.2949519160,0.1281141040,0.0251066517
0.4535000030,0.5013519530,0.5086323620,0.5013519530,0.4631794690,0.2949525120,0.1281138510,0.0251052696
0.4560000000,0.5013524890,0.5086323620,0.5013524890,0.4631800350,0.2949530780,0.1281135980,0.0251039155
0.4584999980,0.5013529660,0.5086323620,0.5013529660,0.4631805720,0.2949536440,0.1281133590,0.0251025911
0.4609999950,0.5013534430,0.5086323620,0.5013534430,0.4631810780,0.2949541810,0.1281131210,0.0251012966
0.4634999930,0.5013539200,0.5086323620,0.5013539200,0.4631816150,0.2949547170,0.1281128820,0.0251000281
0.4659999910,0.5013543960,0.5086323620,0.5013543960,0.4631820920,0.2949552540,0.1281126440,0.0250987876
0.4684999880,0.5013548140,0.5086323620,0.5013548140,0.4631825980,0.2949557600,0.1281124350,0.0250975713
