 Y [ m ], Velocity [ m s^-1 ]
0.0050249998,0.0268632602
0.0050400151,0.0269622374
0.0050550299,0.0270652976
0.0050700447,0.0271723941
0.0050850594,0.0272834767
0.0051000742,0.0273984950
0.0051150890,0.0275173988
0.0051301038,0.0276401471
0.0051451186,0.0277666841
0.0051601334,0.0278969556
0.0051751481,0.0280309077
0.0051901629,0.0281684957
0.0052051777,0.0283096638
0.0052201925,0.0284543559
0.0052352073,0.0286496133
0.0052502220,0.0289309006
0.0052652368,0.0292135924
0.0052802516,0.0294976439
0.0052952664,0.0297830235
0.0053102812,0.0300696921
0.0053252960,0.0303576067
0.0053403107,0.0306467377
0.0053553255,0.0309370514
0.0053703403,0.0312285107
0.0053853551,0.0315210857
0.0054003699,0.0318147503
0.0054153847,0.0321094655
0.0054303994,0.0324052125
0.0054454142,0.0327019542
0.0054604290,0.0329996720
0.0054754438,0.0332983360
0.0054904586,0.0335979164
0.0055054734,0.0338983908
0.0055204881,0.0341997445
0.0055355029,0.0345019475
0.0055505177,0.0348049738
0.0055655325,0.0351088084
0.0055805473,0.0354134291
0.0055955620,0.0357188210
0.0056105768,0.0360249504
0.0056255916,0.0363318101
0.0056406064,0.0366393775
0.0056556212,0.0369476378
0.0056706360,0.0372565687
0.0056856507,0.0375661589
0.0057006655,0.0378763899
0.0057156803,0.0381872468
0.0057306951,0.0384987146
0.0057457099,0.0388107784
0.0057607247,0.0391234234
0.0057757394,0.0394366309
0.0057907542,0.0397504009
0.0058057690,0.0400647074
0.0058207838,0.0403795503
0.0058357986,0.0406949036
0.0058508134,0.0410107598
0.0058658281,0.0413271114
0.0058808429,0.0416439399
0.0058958577,0.0419612415
0.0059108725,0.0422790088
0.0059258873,0.0425972156
0.0059409020,0.0429158695
0.0059559168,0.0431672521
0.0059709316,0.0434009507
0.0059859464,0.0436474979
0.0060009612,0.0439066701
0.0060159760,0.0441782475
0.0060309907,0.0444620065
0.0060460055,0.0447577052
0.0060610203,0.0450651273
0.0060760351,0.0453840159
0.0060910499,0.0457141437
0.0061060647,0.0460552610
0.0061210794,0.0464187674
0.0061360942,0.0468298458
0.0061511090,0.0472423509
0.0061661238,0.0476562418
0.0061811386,0.0480714962
0.0061961534,0.0484880619
0.0062111681,0.0489059202
0.0062261829,0.0493250266
0.0062411977,0.0497453585
0.0062562125,0.0501668826
0.0062712273,0.0505895577
0.0062862420,0.0510133728
0.0063012568,0.0514382944
0.0063162716,0.0518642887
0.0063312864,0.0522913337
0.0063463012,0.0527194031
0.0063613160,0.0531484820
0.0063763307,0.0535785295
0.0063913455,0.0540095232
0.0064063603,0.0544414595
0.0064213751,0.0548743010
0.0064363899,0.0553080291
0.0064514047,0.0557426177
0.0064664194,0.0561780557
0.0064814342,0.0566143245
0.0064964490,0.0570514016
0.0065114638,0.0574892610
0.0065264786,0.0579278991
0.0065414933,0.0583672859
0.0065565081,0.0588074140
0.0065715229,0.0592482612
0.0065865377,0.0596898124
0.0066015525,0.0601320602
0.0066165673,0.0605749749
0.0066315820,0.0610185415
0.0066465968,0.0614627674
0.0066616116,0.0619076230
0.0066766264,0.0623530895
0.0066916412,0.0627991632
0.0067066560,0.0632458329
0.0067216707,0.0636930764
0.0067366855,0.0641408786
0.0067517003,0.0645892471
0.0067667151,0.0650381669
0.0067817299,0.0654876083
0.0067967447,0.0659623519
0.0068117594,0.0662523061
0.0068267742,0.0665580109
0.0068417890,0.0668679848
0.0068568038,0.0671822131
0.0068718186,0.0675006360
0.0068868333,0.0678231716
0.0069018481,0.0681497604
0.0069168629,0.0684803650
0.0069318777,0.0688149184
0.0069468925,0.0691533610
0.0069619073,0.0694956407
0.0069769220,0.0698416904
0.0069919368,0.0701914579
0.0070069516,0.0705449134
0.0070219664,0.0709019527
0.0070369812,0.0712625682
0.0070519960,0.0716266781
0.0070670107,0.0719942376
0.0070820255,0.0723437443
0.0070970403,0.0726542026
0.0071120551,0.0729647130
0.0071270699,0.0732752755
0.0071420847,0.0735858753
0.0071570994,0.0738965124
0.0071721142,0.0742072016
0.0071871290,0.0745179430
0.0072021438,0.0748287141
0.0072171586,0.0751395375
0.0072321733,0.0754503906
0.0072471881,0.0757612810
0.0072622029,0.0760722235
0.0072772177,0.0763832033
0.0072922325,0.0766942203
0.0073072473,0.0770052820
0.0073222620,0.0773163736
0.0073372768,0.0776275024
0.0073522916,0.0779386759
0.0073673064,0.0782498792
0.0073823212,0.0785611272
0.0073973360,0.0788724124
0.0074123507,0.0791837350
0.0074273655,0.0794950798
0.0074423803,0.0798064694
0.0074573951,0.0801178887
0.0074724099,0.0804293454
0.0074874246,0.0807408318
0.0075024394,0.0810523629
0.0075174542,0.0813639089
0.0075324690,0.0816754997
0.0075474838,0.0819871202
0.0075624986,0.0822987631
0.0075775133,0.0826104581
0.0075925281,0.0829221681
0.0076075429,0.0832339153
0.0076225577,0.0835456923
0.0076375725,0.0838574991
0.0076525873,0.0841693357
0.0076676020,0.0844812021
0.0076826168,0.0847930983
0.0076976316,0.0851050243
0.0077126464,0.0854010880
0.0077276612,0.0852339268
0.0077426760,0.0850669444
0.0077576907,0.0849001482
0.0077727055,0.0847335309
0.0077877203,0.0845670924
0.0078027351,0.0844008252
0.0078177499,0.0842347518
0.0078327646,0.0840688720
0.0078477794,0.0839031562
0.0078627942,0.0837376341
0.0078778090,0.0835723057
0.0078928238,0.0834071636
0.0079078386,0.0832422003
0.0079228533,0.0830774382
0.0079378681,0.0829128623
0.0079528829,0.0827484876
0.0079678977,0.0825842991
0.0079829125,0.0824203044
0.0079979273,0.0822565109
0.0080129420,0.0820929110
0.0080279568,0.0819295123
0.0080429716,0.0817663148
0.0080579864,0.0816033185
0.0080730012,0.0814405158
0.0080880160,0.0812779292
0.0081030307,0.0811155364
0.0081180455,0.0809533596
0.0081330603,0.0807811320
0.0081480751,0.0806001946
0.0081630899,0.0804209635
0.0081781046,0.0802434161
0.0081931194,0.0800675824
0.0082081342,0.0798934773
0.0082231490,0.0797211230
0.0082381638,0.0795504898
0.0082531786,0.0793816298
0.0082681933,0.0792145357
0.0082832081,0.0790492222
0.0082982229,0.0788856968
0.0083132377,0.0787239745
0.0083282525,0.0785640702
0.0083432673,0.0784059837
0.0083582820,0.0782497376
0.0083732968,0.0780953318
0.0083883116,0.0779427961
0.0084033264,0.0777921230
0.0084183412,0.0776433349
0.0084333559,0.0774964243
0.0084483707,0.0773514211
0.0084633855,0.0772083327
0.0084784003,0.0770671666
0.0084934151,0.0769279301
0.0085084299,0.0767906383
0.0085234446,0.0766553059
0.0085384594,0.0765219331
0.0085534742,0.0763905346
0.0085684890,0.0756851584
0.0085835038,0.0746941566
0.0085985186,0.0737266466
0.0086135333,0.0727835596
0.0086285481,0.0718658790
0.0086435629,0.0709745809
0.0086585777,0.0701106563
0.0086735925,0.0692751333
0.0086886073,0.0684690773
0.0087036220,0.0676935241
0.0087186368,0.0669495240
0.0087336516,0.0662381426
0.0087486664,0.0655604675
0.0087636812,0.0649175271
0.0087786959,0.0643103644
0.0087937107,0.0637400225
0.0088087255,0.0632074699
0.0088237403,0.0627136901
0.0088387551,0.0622596033
0.0088537699,0.0618460774
0.0088687846,0.0614739321
0.0088837994,0.0611439273
0.0088988142,0.0608567446
0.0089138290,0.0606129915
0.0089288438,0.0604131967
0.0089438586,0.0602577962
0.0089588733,0.0601471365
0.0089738881,0.0600814633
0.0089889029,0.0600609221
0.0090039177,0.0600855611
0.0090189325,0.0601553246
0.0090339473,0.0602700561
0.0090489620,0.0604294986
0.0090639768,0.0606333017
0.0090789916,0.0608810149
0.0090940064,0.0611721091
0.0091090212,0.0615059733
0.0091240359,0.0618818998
0.0091390507,0.0622991398
0.0091540655,0.0627568737
0.0091690803,0.0633352846
0.0091840951,0.0640040860
0.0091991099,0.0647170693
0.0092141246,0.0654727891
0.0092291394,0.0662697777
0.0092441542,0.0671065748
0.0092591690,0.0679817051
0.0092741838,0.0688937083
0.0092891986,0.0698411390
0.0093042133,0.0708225742
0.0093192281,0.0718366206
0.0093342429,0.0728819221
0.0093492577,0.0745951235
0.0093642725,0.0802837834
0.0093792873,0.0860580876
0.0093943020,0.0919018835
0.0094093168,0.0978026688
0.0094243316,0.1037507728
0.0094393464,0.1097384840
0.0094543612,0.1157596633
0.0094693759,0.1218093187
0.0094843907,0.1278834641
0.0094994055,0.1339787096
0.0095144203,0.1400923282
0.0095294351,0.1462220252
0.0095444499,0.1523658335
0.0095594646,0.1585221589
0.0095744794,0.1646895409
0.0095894942,0.1708668172
0.0096045090,0.1770529300
0.0096195238,0.1832470149
0.0096345386,0.1894482821
0.0096495533,0.1963001341
0.0096645681,0.2034376264
0.0096795829,0.2105794400
0.0096945977,0.2177251875
0.0097096125,0.2248744965
0.0097246272,0.2320270091
0.0097396420,0.2391824424
0.0097546568,0.2463405281
0.0097696716,0.2535010874
0.0097846864,0.2606638670
0.0097997012,0.2678287327
0.0098147159,0.2749955058
0.0098297307,0.2821640670
0.0098447455,0.2893341780
0.0098597603,0.2965058684
0.0098747751,0.3036789596
0.0098897899,0.3108533323
0.0099048046,0.3180289269
0.0099198194,0.3252056539
0.0099348342,0.3323834240
0.0099498490,0.3395622373
0.0099648638,0.3467419446
0.0099798786,0.3539225757
0.0099948933,0.3611040115
0.0100099081,0.3682861924
0.0100249229,0.3754691184
0.0100399377,0.3826527894
0.0100549525,0.3898370564
0.0100699672,0.3968166411
0.0100849820,0.4037087560
0.0100999968,0.4106012881
0.0101150116,0.4174941480
0.0101300264,0.4243873358
0.0101450412,0.4312808514
0.0101600559,0.4381746352
0.0101750707,0.4450686872
0.0101900855,0.4519630373
0.0102051003,0.4588576555
0.0102201151,0.4657524824
0.0102351299,0.4726476073
0.0102501446,0.4795428813
0.0102651594,0.4864383936
0.0102801742,0.4933341444
0.0102951890,0.5002300739
0.0103102038,0.5071261525
0.0103252186,0.5140224695
0.0103402333,0.5209189653
0.0103552481,0.5278155804
0.0103702629,0.5347124338
0.0103852777,0.5416093469
0.0104002925,0.5485064387
0.0104153072,0.5554037094
0.0104303220,0.5623011589
0.0104453368,0.5691986084
0.0104603516,0.5760962963
0.0104753664,0.5829941034
0.0104903812,0.5898919702
0.0105053959,0.5967899561
0.0105204107,0.6036881208
0.0105354255,0.6105863452
0.0105504403,0.6176010370
0.0105654551,0.6247768998
0.0105804699,0.6319528818
0.0105954846,0.6391290426
0.0106104994,0.6463052034
0.0106255142,0.6534817219
0.0106405290,0.6606582403
0.0106555438,0.6678348780
0.0106705585,0.6750115752
0.0106855733,0.6821885109
0.0107005881,0.6893654466
0.0107156029,0.6965425015
0.0107306177,0.7037196755
0.0107456325,0.7108968496
0.0107606472,0.7180743218
0.0107756620,0.7252517343
0.0107906768,0.7324293256
0.0108056916,0.7396069765
0.0108207064,0.7467845678
0.0108357212,0.7539624572
0.0108507359,0.7611403465
0.0108657507,0.7683182955
0.0108807655,0.7754963040
0.0108957803,0.7826743126
0.0109107951,0.7898525596
0.0109258099,0.7964414358
0.0109408246,0.7995151877
0.0109558394,0.8023064733
0.0109708542,0.8050979972
0.0109858690,0.8078894019
0.0110008838,0.8106810451
0.0110158985,0.8134727478
0.0110309133,0.8162644506
0.0110459281,0.8190562725
0.0110609429,0.8218481541
0.0110759577,0.8246400952
0.0110909725,0.8274321556
0.0111059872,0.8302242160
0.0111210020,0.8330163956
0.0111360168,0.8358086348
0.0111510316,0.8386009336
0.0111660464,0.8413932920
0.0111810612,0.8441857100
0.0111960759,0.8469783068
0.0112110907,0.8497708440
0.0112261055,0.8525635004
0.0112411203,0.8553561568
0.0112561351,0.8581489325
0.0112711499,0.8609417677
0.0112861646,0.8637346625
0.0113011794,0.8665275574
0.0113161942,0.8693205714
0.0113312090,0.8721137047
0.0113462238,0.8749068379
0.0113612385,0.8777000308
0.0113762533,0.8804932833
0.0113912681,0.8832865357
0.0114062829,0.8860799074
0.0114212977,0.8886431456
0.0114363125,0.8911925554
0.0114513272,0.8937422037
0.0114663420,0.8962919116
0.0114813568,0.8988415599
0.0114963716,0.9013914466
0.0115113864,0.9039413333
0.0115264012,0.9064912200
0.0115414159,0.9090411663
0.0115564307,0.9115912914
0.0115714455,0.9141415358
0.0115864603,0.9166917801
0.0116014751,0.9192420244
0.0116164899,0.9217923880
0.0116315046,0.9243428111
0.0116465194,0.9268933535
0.0116615342,0.9294439554
0.0116765490,0.9319945574
0.0116915638,0.9345452189
0.0117065785,0.9370960593
0.0117215933,0.9396469593
0.0117366081,0.9421977401
0.0117516229,0.9447486997
0.0117666377,0.9472997785
0.0117816525,0.9498508573
0.0117966672,0.9524019957
0.0118116820,0.9549531937
0.0118266968,0.9575045705
0.0118417116,0.9600558877
0.0118567264,0.9626072645
0.0118717412,0.9651587009
0.0118867559,0.9677101970
0.0119017707,0.9702617526
0.0119167855,0.9728133678
0.0119318003,0.9751353264
0.0119468151,0.9753028750
0.0119618298,0.9754325748
0.0119768446,0.9755622745
0.0119918594,0.9756921530
0.0120068742,0.9758220315
0.0120218890,0.9759519100
0.0120369038,0.9760818481
0.0120519185,0.9762119055
0.0120669333,0.9763419032
0.0120819481,0.9764719605
0.0120969629,0.9766021967
0.0121119777,0.9767324328
0.0121269925,0.9768626094
0.0121420072,0.9769929051
0.0121570220,0.9771231413
0.0121720368,0.9772536755
0.0121870516,0.9773840904
0.0122020664,0.9775143862
0.0122170812,0.9776450396
0.0122320959,0.9777756333
0.0122471107,0.9779062271
0.0122621255,0.9780369401
0.0122771403,0.9781677127
0.0122921551,0.9782984257
0.0123071698,0.9784292579
0.0123221846,0.9785600305
0.0123371994,0.9785965085
0.0123522142,0.9780495763
0.0123672290,0.9775026441
0.0123822438,0.9769560099
0.0123972585,0.9764093161
0.0124122733,0.9758627415
0.0124272881,0.9753162265
0.0124423029,0.9747697115
0.0124573177,0.9742233157
0.0124723325,0.9736770392
0.0124873472,0.9731308222
0.0125023620,0.9725846648
0.0125173768,0.9720384479
0.0125323916,0.9714924693
0.0125474064,0.9709464908
0.0125624212,0.9704005718
0.0125774359,0.9698547125
0.0125924507,0.9693089724
0.0126074655,0.9687632918
0.0126224803,0.9682177305
0.0126374951,0.9676722288
0.0126525098,0.9671267271
0.0126675246,0.9665812254
0.0126825394,0.9660359621
0.0126975542,0.9654907584
0.0127125690,0.9649455547
0.0127275838,0.9644005299
0.0127425985,0.9638554454
0.0127576133,0.9633105397
0.0127726281,0.9627656341
0.0127876429,0.9622208476
0.0128026577,0.9616760612
0.0128176725,0.9611313343
0.0128326872,0.9605868459
0.0128477020,0.9600423574
0.0128627168,0.9594978690
0.0128777316,0.9589535594
0.0128927464,0.9584091902
0.0129077611,0.9578650594
0.0129227759,0.9573208690
0.0129377907,0.9567768574
0.0129528055,0.9562327862
0.0129678203,0.9556889534
0.0129828351,0.9551450014
0.0129978498,0.9546013475
0.0130128646,0.9540576339
0.0130278794,0.9535139799
0.0130428942,0.9529703856
0.0130579090,0.9524269104
0.0130729238,0.9518836141
0.0130879385,0.9513401985
0.0131029533,0.9507969022
0.0131179681,0.9502537847
0.0131329829,0.9497107863
0.0131479977,0.9491677284
0.0131630125,0.9486248493
0.0131780272,0.9480819702
0.0131930420,0.9475392103
0.0132080568,0.9469964504
0.0132230716,0.9464538097
0.0132380864,0.9459112883
0.0132531011,0.9453688860
0.0132681159,0.9448264241
0.0132831307,0.9442841411
0.0132981455,0.9437418580
0.0133131603,0.9431996346
0.0133281751,0.9426575899
0.0133431898,0.9421156645
0.0133582046,0.9415736795
0.0133732194,0.9410317540
0.0133882342,0.9404900670
0.0134032490,0.9399483800
0.0134182638,0.9394067526
0.0134332785,0.9388651848
0.0134482933,0.9383237958
0.0134633081,0.9377823472
0.0134783229,0.9372410774
0.0134933377,0.9366998673
0.0135083525,0.9357405305
0.0135233672,0.9328488708
0.0135383820,0.9299573302
0.0135533968,0.9270657897
0.0135684116,0.9241743088
0.0135834264,0.9212830067
0.0135984411,0.9183917046
0.0136134559,0.9155004025
0.0136284707,0.9126092196
0.0136434855,0.9097180367
0.0136585003,0.9068269134
0.0136735151,0.9039359689
0.0136885298,0.9010450840
0.0137035446,0.8981540799
0.0137185594,0.8952632546
0.0137335742,0.8923724890
0.0137485890,0.8894817829
0.0137636038,0.8865910769
0.0137786185,0.8837004900
0.0137936333,0.8808100820
0.0138086481,0.8779196143
0.0138236629,0.8750292063
0.0138386777,0.8721388578
0.0138536925,0.8692486882
0.0138687072,0.8663583994
0.0138837220,0.8634682894
0.0138987368,0.8605784178
0.0139137516,0.8576883674
0.0139287664,0.8547984958
0.0139437811,0.8519086838
0.0139587959,0.8490189314
0.0139738107,0.8461291790
0.0139888255,0.8432396054
0.0140038403,0.8403501511
0.0140188551,0.8374606967
0.0140338698,0.8345714212
0.0140488846,0.8316820264
0.0140638994,0.8287928104
0.0140789142,0.8259036541
0.0140939290,0.8230146766
0.0141089438,0.8201256394
0.0141239585,0.8172368407
0.0141389733,0.8143480420
0.0141539881,0.8114593029
0.0141690029,0.8085707426
0.0141840177,0.8056821227
0.0141990324,0.8027937412
0.0142140472,0.7999053001
0.0142290620,0.7972397208
0.0142440768,0.7942184806
0.0142590916,0.7914053202
0.0142741064,0.7885922194
0.0142891211,0.7857792378
0.0143041359,0.7811756134
0.0143191507,0.7745198607
0.0143341655,0.7678642869
0.0143491803,0.7612088323
0.0143641951,0.7545801997
0.0143792098,0.7475981712
0.0143942246,0.7406162024
0.0144092394,0.7336342335
0.0144242542,0.7266524434
0.0144392690,0.7196707726
0.0144542838,0.7126889825
0.0144692985,0.7057072520
0.0144843133,0.6987258196
0.0144993281,0.6917442679
0.0145143429,0.6847628355
0.0145293577,0.6777814031
0.0145443724,0.6708001494
0.0145593872,0.6638190150
0.0145744020,0.6568379402
0.0145894168,0.6498568058
0.0146044316,0.6428759098
0.0146194464,0.6358950734
0.0146344611,0.6289142966
0.0146494759,0.6219336391
0.0146644907,0.6149530411
0.0146795055,0.6079726219
0.0146945203,0.6009922028
0.0147095351,0.5940119624
0.0147245498,0.5870318413
0.0147395646,0.5800518394
0.0147545794,0.5730718970
0.0147695942,0.5660921931
0.0147846090,0.5591125488
0.0147996238,0.5521330237
0.0148146385,0.5451536775
0.0148296533,0.5381744504
0.0148446681,0.5311954618
0.0148596829,0.5242165327
0.0148746977,0.5172377825
0.0148897124,0.5102592707
0.0149047272,0.5032808781
0.0149197420,0.4963027239
0.0149347568,0.4893247187
0.0149497716,0.4823469520
0.0149647864,0.4753693640
0.0149798011,0.4683920741
0.0149948159,0.4614149332
0.0150098307,0.4544380903
0.0150248455,0.4474614561
0.0150398603,0.4404851198
0.0150548751,0.4335091114
0.0150698898,0.4265333116
0.0150849046,0.4195578098
0.0150999194,0.4125826955
0.0151149342,0.4056079388
0.0151299490,0.3986334503
0.0151449637,0.3916594684
0.0151599785,0.3846857846
0.0151749933,0.3775241971
0.0151900081,0.3691082895
0.0152050229,0.3606925607
0.0152200377,0.3522770107
0.0152350524,0.3438615799
0.0152500672,0.3354463577
0.0152650820,0.3270313740
0.0152800968,0.3186166585
0.0152951116,0.3102021813
0.0153101264,0.3017879725
0.0153251411,0.2933740616
0.0153401559,0.2849604487
0.0153551707,0.2765472233
0.0153701855,0.2707985640
0.0153852003,0.2655086517
0.0154002151,0.2602208853
0.0154152298,0.2549354732
0.0154302446,0.2496524900
0.0154452594,0.2443721890
0.0154602742,0.2390946448
0.0154752890,0.2338200957
0.0154903037,0.2285487503
0.0155053185,0.2232808322
0.0155203333,0.2180165798
0.0155353481,0.2127563357
0.0155503629,0.2075002790
0.0155653777,0.2022488266
0.0155803924,0.1970022917
0.0155954072,0.1917611361
0.0156104220,0.1865258068
0.0156254377,0.1812963784
0.0156404525,0.1760742217
0.0156554673,0.1708595306
0.0156704821,0.1656530350
0.0156854969,0.1604555547
0.0157005116,0.1552679688
0.0157155264,0.1500913352
0.0157305412,0.1449268013
0.0157455560,0.1397757083
0.0157605708,0.1346396059
0.0157755855,0.1295202971
0.0157906003,0.1244198307
0.0158056151,0.1193406284
0.0158206299,0.1142855287
0.0158356447,0.1092578471
0.0158506595,0.1042616069
0.0158656742,0.0993015021
0.0158806890,0.0943832695
0.0158957038,0.0895137787
0.0159107186,0.0847014561
0.0159257334,0.0799566209
0.0159407482,0.0752920210
0.0159557629,0.0707235560
0.0159707777,0.0662711114
0.0159857925,0.0619596653
0.0160008073,0.0578208081
0.0160158221,0.0538942963
0.0160308369,0.0502299666
0.0160458516,0.0468893126
0.0160608664,0.0439462177
0.0160758812,0.0430339128
0.0160908960,0.0428682417
0.0161059108,0.0428135991
