Time [ s ],Monitor Point: Coil12 X0 Z0089 (Temperature) [ K ]
0.0010000001,293.1499940000
0.0020000001,293.1499940000
0.0030000000,293.1499940000
0.0040000002,293.1499940000
0.0049999999,293.1499940000
0.0060000001,293.1499940000
0.0070000002,293.1499940000
0.0080000004,293.1499940000
0.0089999996,293.1499940000
0.0099999998,293.1500240000
0.0109999999,293.1500850000
0.0120000001,293.1503300000
0.0130000003,293.1507570000
0.0140000004,293.1514590000
0.0149999997,293.1523740000
0.0160000008,293.1535030000
0.0170000009,293.1547850000
0.0179999992,293.1560970000
0.0189999994,293.1574400000
0.0199999996,293.1587520000
0.0209999997,293.1600340000
0.0219999999,293.1613160000
0.0230000000,293.1625980000
0.0240000002,293.1638790000
0.0250000004,293.1651610000
0.0260000005,293.1664730000
0.0270000007,293.1677550000
0.0280000009,293.1690370000
0.0289999992,293.1703190000
0.0299999993,293.1716000000
0.0309999995,293.1728820000
0.0320000015,293.1741940000
0.0329999998,293.1754760000
0.0340000018,293.1767580000
0.0350000001,293.1780400000
0.0359999985,293.1793210000
0.0370000005,293.1806030000
0.0379999988,293.1818850000
0.0390000008,293.1831970000
0.0399999991,293.1844790000
0.0410000011,293.1857600000
0.0419999994,293.1870420000
0.0430000015,293.1883240000
0.0439999998,293.1896060000
0.0450000018,293.1908870000
0.0460000001,293.1922000000
0.0469999984,293.1934810000
0.0480000004,293.1947630000
0.0489999987,293.1960450000
0.0500000007,293.1973270000
0.0509999990,293.1986080000
0.0520000011,293.1998900000
0.0529999994,293.2012020000
0.0540000014,293.2024840000
0.0549999997,293.2037350000
0.0560000017,293.2050480000
0.0570000000,293.2063290000
0.0579999983,293.2076110000
0.0590000004,293.2088930000
0.0599999987,293.2101750000
0.0610000007,293.2114560000
0.0619999990,293.2127380000
0.0630000010,293.2140200000
0.0640000030,293.2153020000
0.0649999976,293.2165830000
0.0659999996,293.2178650000
0.0670000017,293.2191470000
0.0680000037,293.2204280000
0.0689999983,293.2217100000
0.0700000003,293.2229920000
0.0710000023,293.2242740000
0.0719999969,293.2255550000
0.0729999989,293.2268370000
0.0740000010,293.2281190000
0.0750000030,293.2294010000
0.0759999976,293.2306820000
0.0769999996,293.2319640000
0.0780000016,293.2332460000
0.0790000036,293.2345280000
0.0799999982,293.2358090000
0.0810000002,293.2370910000
0.0820000023,293.2383730000
0.0829999968,293.2396550000
0.0839999989,293.2409060000
0.0850000009,293.2421880000
0.0860000029,293.2434690000
0.0869999975,293.2447510000
0.0879999995,293.2460330000
0.0890000015,293.2473140000
0.0900000036,293.2485960000
0.0909999982,293.2498780000
0.0920000002,293.2511600000
0.0930000022,293.2524410000
0.0939999968,293.2537230000
0.0949999988,293.2549740000
0.0960000008,293.2562560000
0.0970000029,293.2575380000
0.0979999974,293.2588200000
0.0989999995,293.2601010000
0.1000000010,293.2613830000
0.1010000040,293.2626340000
0.1019999980,293.2639160000
0.1030000000,293.2651980000
0.1040000020,293.2664790000
0.1049999970,293.2677610000
0.1059999990,293.2690430000
0.1070000010,293.2702940000
0.1080000030,293.2715760000
0.1089999970,293.2728580000
0.1099999990,293.2741390000
0.1110000010,293.2753910000
0.1120000030,293.2766720000
0.1129999980,293.2779540000
0.1140000000,293.2792050000
0.1150000020,293.2804870000
0.1159999970,293.2817690000
0.1169999990,293.2830510000
0.1180000010,293.2843320000
0.1190000030,293.2855830000
0.1199999970,293.2868650000
0.1209999990,293.2881470000
0.1220000010,293.2893980000
0.1230000030,293.2906800000
0.1239999980,293.2919620000
0.1250000000,293.2932430000
0.1260000020,293.2944950000
0.1270000040,293.2957760000
0.1280000060,293.2970280000
0.1289999930,293.2983090000
0.1299999950,293.2995910000
0.1309999970,293.3008420000
0.1319999990,293.3021240000
0.1330000010,293.3034060000
0.1340000030,293.3046570000
0.1350000050,293.3059390000
0.1360000070,293.3072200000
0.1369999950,293.3084720000
0.1379999970,293.3097530000
0.1389999990,293.3110350000
0.1400000010,293.3122860000
0.1410000030,293.3135380000
0.1420000050,293.3148190000
0.1430000070,293.3161010000
0.1439999940,293.3173520000
0.1449999960,293.3186340000
0.1459999980,293.3198850000
0.1470000000,293.3211670000
0.1480000020,293.3224180000
0.1490000040,293.3237000000
0.1500000060,293.3249820000
0.1509999930,293.3262330000
0.1519999950,293.3275150000
0.1529999970,293.3287660000
0.1539999990,293.3300480000
0.1550000010,293.3312990000
0.1560000030,293.3325810000
0.1570000050,293.3338320000
0.1580000070,293.3351140000
0.1589999940,293.3363650000
0.1599999960,293.3376460000
0.1609999980,293.3388980000
0.1620000000,293.3401790000
0.1630000030,293.3414310000
0.1640000050,293.3427120000
0.1650000070,293.3439640000
0.1659999940,293.3452150000
0.1669999960,293.3464970000
0.1679999980,293.3477480000
0.1690000000,293.3490300000
0.1700000020,293.3502810000
0.1710000040,293.3515630000
0.1720000060,293.3528140000
0.1729999930,293.3540650000
0.1739999950,293.3553470000
0.1749999970,293.3565980000
0.1759999990,293.3578800000
0.1770000010,293.3591310000
0.1780000030,293.3604130000
0.1790000050,293.3616640000
0.1800000070,293.3629150000
0.1809999940,293.3641660000
0.1819999960,293.3654480000
0.1829999980,293.3666990000
0.1840000000,293.3679810000
0.1850000020,293.3692320000
0.1860000040,293.3704830000
0.1870000060,293.3717650000
0.1879999940,293.3730160000
0.1889999960,293.3742680000
0.1899999980,293.3755190000
0.1910000000,293.3768010000
0.1920000020,293.3780520000
0.1930000040,293.3793030000
0.1940000060,293.3805850000
0.1949999930,293.3818360000
0.1959999950,293.3830870000
0.1969999970,293.3843380000
0.1979999990,293.3856200000
0.1990000010,293.3868710000
0.2000000030,293.3881230000
0.2010000050,293.3894040000
0.2020000070,293.3906560000
0.2029999940,293.3919070000
0.2039999960,293.3931580000
0.2049999980,293.3944090000
0.2060000000,293.3956910000
0.2070000020,293.3969420000
0.2080000040,293.3981930000
0.2090000060,293.3994450000
0.2099999930,293.4006960000
0.2109999950,293.4019780000
0.2119999970,293.4032290000
0.2130000000,293.4044800000
0.2140000020,293.4057310000
0.2150000040,293.4069820000
0.2160000060,293.4082640000
0.2169999930,293.4094850000
0.2179999950,293.4107670000
0.2189999970,293.4120180000
0.2199999990,293.4132690000
0.2210000010,293.4145200000
0.2220000030,293.4157710000
0.2230000050,293.4170230000
0.2240000070,293.4183040000
0.2249999940,293.4195250000
0.2259999960,293.4208070000
0.2269999980,293.4220580000
0.2280000000,293.4233090000
0.2290000020,293.4245610000
0.2300000040,293.4258120000
0.2310000060,293.4270630000
0.2319999930,293.4283140000
0.2329999950,293.4295650000
0.2339999970,293.4308170000
0.2349999990,293.4320680000
0.2360000010,293.4333190000
0.2370000030,293.4345700000
0.2380000050,293.4358520000
0.2389999930,293.4371030000
0.2399999950,293.4383540000
0.2409999970,293.4395750000
0.2419999990,293.4408260000
0.2430000010,293.4420780000
0.2440000030,293.4433590000
0.2450000050,293.4446110000
0.2460000070,293.4458620000
0.2469999940,293.4471130000
0.2479999960,293.4483640000
0.2489999980,293.4495850000
0.2500000000,293.4508360000
0.2509999870,293.4520870000
0.2520000040,293.4533390000
0.2529999910,293.4545900000
0.2540000080,293.4558410000
0.2549999950,293.4570920000
0.2560000120,293.4583440000
0.2569999990,293.4595950000
0.2579999860,293.4608460000
0.2590000030,293.4620970000
0.2599999900,293.4633480000
0.2610000070,293.4646000000
0.2619999950,293.4658510000
0.2630000110,293.4670720000
0.2639999990,293.4683230000
0.2649999860,293.4695740000
0.2660000030,293.4708250000
0.2669999900,293.4720760000
0.2680000070,293.4733280000
0.2689999940,293.4745790000
0.2700000110,293.4758000000
0.2709999980,293.4770510000
0.2720000150,293.4783020000
0.2730000020,293.4795530000
0.2739999890,293.4808040000
0.2750000060,293.4820250000
0.2759999930,293.4832760000
0.2770000100,293.4845280000
0.2779999970,293.4857790000
0.2790000140,293.4870300000
0.2800000010,293.4882810000
0.2809999880,293.4895020000
0.2820000050,293.4907530000
0.2829999920,293.4920040000
0.2840000090,293.4932560000
0.2849999960,293.4945070000
0.2860000130,293.4957580000
0.2870000000,293.4969790000
0.2879999880,293.4982300000
0.2890000050,293.4994810000
0.2899999920,293.5007320000
0.2910000090,293.5019530000
0.2919999960,293.5032040000
0.2930000130,293.5044560000
0.2940000000,293.5056760000
0.2949999870,293.5069270000
0.2960000040,293.5081790000
0.2969999910,293.5093990000
0.2980000080,293.5106510000
0.2989999950,293.5119020000
0.3000000120,293.5131530000
0.3009999990,293.5143740000
0.3019999860,293.5156250000
0.3030000030,293.5168460000
0.3039999900,293.5180970000
0.3050000070,293.5193480000
0.3059999940,293.5205690000
0.3070000110,293.5218200000
0.3079999980,293.5230710000
0.3089999850,293.5242920000
0.3100000020,293.5255430000
0.3109999900,293.5267940000
0.3120000060,293.5280150000
0.3129999940,293.5292660000
0.3140000100,293.5304870000
0.3149999980,293.5317380000
0.3160000150,293.5329900000
0.3170000020,293.5342100000
0.3179999890,293.5354610000
0.3190000060,293.5366820000
0.3199999930,293.5379330000
0.3210000100,293.5391850000
0.3219999970,293.5404050000
0.3230000140,293.5416260000
0.3240000010,293.5428770000
0.3249999880,293.5441280000
0.3260000050,293.5453490000
0.3269999920,293.5466000000
0.3280000090,293.5478210000
0.3289999960,293.5490720000
0.3300000130,293.5502930000
0.3310000000,293.5515440000
0.3319999870,293.5527650000
0.3330000040,293.5540160000
0.3339999910,293.5552370000
0.3350000080,293.5564880000
0.3359999950,293.5577090000
0.3370000120,293.5589600000
0.3380000000,293.5601810000
0.3389999870,293.5614320000
0.3400000040,293.5626530000
0.3409999910,293.5639040000
0.3420000080,293.5651250000
0.3429999950,293.5663450000
0.3440000120,293.5675960000
0.3449999990,293.5688170000
0.3459999860,293.5700680000
0.3470000030,293.5712890000
0.3479999900,293.5725100000
0.3490000070,293.5737610000
0.3499999940,293.5749820000
0.3510000110,293.5762330000
0.3519999980,293.5774540000
0.3529999850,293.5787050000
0.3540000020,293.5799260000
0.3549999890,293.5811460000
0.3560000060,293.5823670000
0.3569999930,293.5836180000
0.3580000100,293.5848390000
0.3589999970,293.5860900000
0.3600000140,293.5873110000
0.3610000010,293.5885310000
0.3619999890,293.5897830000
0.3630000050,293.5910030000
0.3639999930,293.5922240000
0.3650000100,293.5934450000
0.3659999970,293.5946960000
0.3670000140,293.5959170000
0.3680000010,293.5971370000
0.3689999880,293.5983890000
0.3700000050,293.5996090000
0.3709999920,293.6008300000
0.3720000090,293.6020810000
0.3729999960,293.6033020000
0.3740000130,293.6045230000
0.3750000000,293.6057430000
0.3759999870,293.6069950000
0.3770000040,293.6082150000
0.3779999910,293.6094360000
0.3790000080,293.6106570000
0.3799999950,293.6118770000
0.3810000120,293.6131290000
0.3819999990,293.6143490000
0.3829999860,293.6155700000
0.3840000030,293.6167910000
0.3849999900,293.6180420000
0.3860000070,293.6192630000
0.3869999950,293.6204830000
0.3880000110,293.6217040000
0.3889999990,293.6229250000
0.3899999860,293.6241460000
0.3910000030,293.6253970000
0.3919999900,293.6266170000
0.3930000070,293.6278380000
0.3939999940,293.6290590000
0.3950000110,293.6302800000
0.3959999980,293.6315000000
0.3970000150,293.6327510000
0.3980000020,293.6339720000
0.3989999890,293.6351930000
0.4000000060,293.6364140000
0.4009999930,293.6376340000
0.4020000100,293.6388550000
0.4029999970,293.6400760000
0.4040000140,293.6412960000
0.4050000010,293.6425170000
0.4059999880,293.6437380000
0.4070000050,293.6449890000
0.4079999920,293.6462100000
0.4090000090,293.6474300000
0.4099999960,293.6486510000
0.4110000130,293.6498720000
0.4120000000,293.6510930000
0.4129999880,293.6523130000
0.4140000050,293.6535340000
0.4149999920,293.6547550000
0.4160000090,293.6559750000
0.4169999960,293.6571960000
0.4180000130,293.6584170000
0.4190000000,293.6596370000
0.4199999870,293.6608580000
0.4210000040,293.6620790000
0.4219999910,293.6633000000
0.4230000080,293.6645200000
0.4239999950,293.6657410000
0.4250000120,293.6669620000
0.4259999990,293.6681820000
0.4269999860,293.6694030000
0.4280000030,293.6706240000
0.4289999900,293.6718440000
0.4300000070,293.6730650000
0.4309999940,293.6742860000
0.4320000110,293.6755070000
0.4329999980,293.6767270000
0.4339999850,293.6779170000
0.4350000020,293.6791380000
0.4359999900,293.6803590000
0.4370000060,293.6815800000
0.4379999940,293.6828000000
0.4390000100,293.6840210000
0.4399999980,293.6852420000
0.4410000150,293.6864620000
0.4420000020,293.6876830000
0.4429999890,293.6889040000
0.4440000060,293.6901250000
0.4449999930,293.6913450000
0.4460000100,293.6925350000
0.4469999970,293.6937560000
0.4480000140,293.6949770000
0.4490000010,293.6961980000
0.4499999880,293.6974180000
0.4510000050,293.6986080000
0.4519999920,293.6998290000
0.4530000090,293.7010500000
0.4539999960,293.7022710000
0.4550000130,293.7034910000
0.4560000000,293.7047120000
0.4569999870,293.7059020000
0.4580000040,293.7071230000
0.4589999910,293.7083440000
0.4600000080,293.7095640000
0.4609999950,293.7107850000
0.4620000120,293.7119750000
0.4630000000,293.7131960000
0.4639999870,293.7144170000
0.4650000040,293.7156070000
0.4659999910,293.7168270000
0.4670000080,293.7180480000
0.4679999950,293.7192690000
0.4690000120,293.7204590000
0.4699999990,293.7216800000
0.4709999860,293.7229000000
0.4720000030,293.7241210000
0.4729999900,293.7253110000
0.4740000070,293.7265320000
0.4749999940,293.7277530000
0.4760000110,293.7289730000
0.4769999980,293.7301940000
0.4779999850,293.7313840000
0.4790000020,293.7326050000
0.4799999890,293.7337950000
0.4810000060,293.7350160000
0.4819999930,293.7362370000
0.4830000100,293.7374270000
0.4839999970,293.7386470000
0.4850000140,293.7398680000
0.4860000010,293.7410580000
0.4869999890,293.7422790000
0.4880000050,293.7435000000
0.4889999930,293.7446900000
0.4900000100,293.7459110000
0.4909999970,293.7471310000
0.4920000140,293.7483220000
0.4930000010,293.7495420000
0.4939999880,293.7507320000
0.4950000050,293.7519530000
0.4959999920,293.7531740000
0.4970000090,293.7543640000
0.4979999960,293.7555850000
0.4990000130,293.7567750000
0.5000000000,293.7579960000
0.5009999870,293.7591860000
0.5019999740,293.7604060000
0.5030000210,293.7615970000
0.5040000080,293.7628170000
0.5049999950,293.7640380000
0.5059999820,293.7652280000
0.5070000290,293.7664490000
0.5080000160,293.7676390000
0.5090000030,293.7688600000
0.5099999900,293.7700500000
0.5109999780,293.7712710000
0.5120000240,293.7724610000
0.5130000110,293.7736820000
0.5139999990,293.7748720000
0.5149999860,293.7760930000
0.5159999730,293.7772830000
0.5170000200,293.7785030000
0.5180000070,293.7796940000
0.5189999940,293.7809140000
0.5199999810,293.7821040000
0.5210000280,293.7833250000
0.5220000150,293.7845150000
0.5230000020,293.7857060000
0.5239999890,293.7869260000
0.5249999760,293.7881160000
0.5260000230,293.7893070000
0.5270000100,293.7905270000
0.5279999970,293.7917180000
0.5289999840,293.7929380000
0.5299999710,293.7941280000
0.5310000180,293.7953190000
0.5320000050,293.7965390000
0.5329999920,293.7977290000
0.5339999790,293.7989500000
0.5350000260,293.8001400000
0.5360000130,293.8013310000
0.5370000000,293.8025510000
0.5379999880,293.8037410000
0.5389999750,293.8049320000
0.5400000210,293.8061520000
0.5410000090,293.8073430000
0.5419999960,293.8085630000
0.5429999830,293.8097530000
0.5440000300,293.8109440000
0.5450000170,293.8121640000
0.5460000040,293.8133540000
0.5469999910,293.8145450000
0.5479999780,293.8157350000
0.5490000250,293.8169250000
0.5500000120,293.8181460000
0.5509999990,293.8193360000
0.5519999860,293.8205260000
0.5529999730,293.8217470000
0.5540000200,293.8229370000
0.5550000070,293.8241270000
0.5559999940,293.8253170000
0.5569999810,293.8265380000
0.5580000280,293.8277280000
0.5590000150,293.8289180000
0.5600000020,293.8301090000
0.5609999900,293.8313290000
0.5619999770,293.8325200000
0.5630000230,293.8337100000
0.5640000100,293.8349000000
0.5649999980,293.8361210000
0.5659999850,293.8373110000
0.5669999720,293.8385010000
0.5680000190,293.8396910000
0.5690000060,293.8408810000
0.5699999930,293.8421020000
0.5709999800,293.8432920000
0.5720000270,293.8444820000
0.5730000140,293.8456730000
0.5740000010,293.8468630000
0.5749999880,293.8480530000
0.5759999750,293.8492740000
0.5770000220,293.8504640000
0.5780000090,293.8516540000
0.5789999960,293.8528440000
0.5799999830,293.8540340000
0.5809999700,293.8552250000
0.5820000170,293.8564150000
0.5830000040,293.8576050000
0.5839999910,293.8587950000
0.5849999790,293.8599850000
0.5860000250,293.8611760000
0.5870000120,293.8623660000
0.5880000000,293.8635860000
0.5889999870,293.8647770000
0.5899999740,293.8659670000
0.5910000210,293.8671570000
0.5920000080,293.8683470000
0.5929999950,293.8695370000
0.5939999820,293.8707280000
0.5950000290,293.8719180000
0.5960000160,293.8731080000
0.5970000030,293.8742980000
0.5979999900,293.8754880000
0.5989999770,293.8766780000
0.6000000240,293.8778690000
0.6010000110,293.8790590000
0.6019999980,293.8802490000
0.6029999850,293.8814390000
0.6039999720,293.8826290000
0.6050000190,293.8838200000
0.6060000060,293.8850100000
0.6069999930,293.8862000000
0.6079999800,293.8873900000
0.6090000270,293.8885800000
0.6100000140,293.8897710000
0.6110000010,293.8909610000
0.6119999890,293.8921510000
0.6129999760,293.8933410000
0.6140000220,293.8945310000
0.6150000100,293.8957210000
0.6159999970,293.8969120000
0.6169999840,293.8981020000
0.6179999710,293.8992920000
0.6190000180,293.9004820000
0.6200000050,293.9016420000
0.6209999920,293.9028320000
0.6219999790,293.9040220000
0.6230000260,293.9052120000
0.6240000130,293.9064030000
0.6250000000,293.9075930000
0.6259999870,293.9087830000
0.6269999740,293.9099730000
0.6280000210,293.9111330000
0.6290000080,293.9123230000
0.6299999950,293.9135130000
0.6309999820,293.9147030000
0.6320000290,293.9158940000
0.6330000160,293.9170840000
0.6340000030,293.9182740000
0.6349999900,293.9194340000
0.6359999780,293.9206240000
0.6370000240,293.9218140000
0.6380000110,293.9230040000
0.6389999990,293.9241940000
0.6399999860,293.9253540000
0.6409999730,293.9265440000
0.6420000200,293.9277340000
0.6430000070,293.9289250000
0.6439999940,293.9301150000
0.6449999810,293.9312740000
0.6460000280,293.9324650000
0.6470000150,293.9336550000
0.6480000020,293.9348450000
0.6489999890,293.9360050000
0.6499999760,293.9371950000
0.6510000230,293.9383850000
0.6520000100,293.9395750000
0.6529999970,293.9407350000
0.6539999840,293.9419250000
0.6549999710,293.9431150000
0.6560000180,293.9442750000
0.6570000050,293.9454650000
0.6579999920,293.9466550000
0.6589999790,293.9478150000
0.6600000260,293.9490050000
0.6610000130,293.9501950000
0.6620000000,293.9513550000
0.6629999880,293.9525450000
0.6639999750,293.9537350000
0.6650000210,293.9548950000
0.6660000090,293.9560850000
0.6669999960,293.9572750000
0.6679999830,293.9584350000
0.6690000300,293.9596250000
0.6700000170,293.9608150000
0.6710000040,293.9619750000
0.6719999910,293.9631650000
0.6729999780,293.9643250000
0.6740000250,293.9655150000
0.6750000120,293.9667050000
0.6759999990,293.9678650000
0.6769999860,293.9690550000
0.6779999730,293.9702150000
0.6790000200,293.9714050000
0.6800000070,293.9725950000
0.6809999940,293.9737550000
0.6819999810,293.9749450000
0.6830000280,293.9761350000
0.6840000150,293.9772950000
0.6850000020,293.9784850000
0.6859999900,293.9796450000
0.6869999770,293.9808350000
